# k (MeV)		C(k)D0p			pi0Lambdac		pi0Sigmac+		pi+ Sigmac0		pi-Sigmac++ 		D+n			etaLambdac+ all channels
0.10000000149011612	0.2972710010276862	0.46537144479989945	0.4653890741765559	0.49703598498617696	0.5299824809334548	0.7647759594426348	0.7647794394191291	0.7680865132094661
1.0	0.29680403950337886	0.4646380280948054	0.4646556339463559	0.49625200736924646	0.5291462882351979	0.7635712519226352	0.7635747271155964	0.7668765797139243
2.0	0.2958161611888526	0.4630696566638095	0.46308721497217564	0.4945731754330789	0.5273537086862188	0.760978900136175	0.7609823655225445	0.7642728608165016
3.0	0.2947099109503319	0.4613465107345724	0.4613640264695685	0.49273197885719566	0.52539164641108	0.7581734834024861	0.7581769396854321	0.761455402878468
4.0	0.2936553780122146	0.45965939613127926	0.459676876359737	0.4909231344125575	0.5234588785476736	0.7553826454159682	0.7553860937150697	0.7586522571285492
5.0	0.29263021736473976	0.45798218946766933	0.45799964078754773	0.48911981626123735	0.5215278388670733	0.7525734731686793	0.752576914513366	0.7558304356722407
6.0	0.29186566016261317	0.45654170836154745	0.4565591368361137	0.4875480207329468	0.5198236588993744	0.7499648624146917	0.7499682977312621	0.7532087468390195
7.0	0.2915372707953823	0.45551073463521025	0.45552814596447533	0.48638001640231016	0.5185180621542123	0.7477245768519212	0.7477280069974093	0.7509548989919187
8.0	0.2907472502362163	0.45399000889755203	0.454007408557438	0.4847162804779516	0.5167112399924926	0.7449506929199835	0.7449541187096599	0.7481669392459491
9.0	0.2914010093051936	0.45388434297053665	0.45390173630394914	0.4844615243794714	0.5163077868814616	0.7435468916885245	0.7435503139138976	0.7467485362827819
10.0	0.2909489143386457	0.45264404134290287	0.4526614336170441	0.4830660540748063	0.5147579971870098	0.7409633031240589	0.7409667225642119	0.7441498182346249
13.0	0.29196026857680624	0.4511217899202998	0.4511392103354712	0.48104266422911957	0.5122386471880152	0.735146233431623	0.7351496491600291	0.7382842600375032
16.0	0.29238074863781244	0.4487687137953998	0.44878620940384834	0.4781378687554735	0.5087910560080252	0.7281236564754415	0.7281270755273879	0.7312087964951733
19.0	0.2934156635556884	0.44681141707664024	0.44682903556901565	0.4755827255655637	0.505650480311324	0.7211584407517087	0.721161870361443	0.7241866959606823
22.0	0.29663648433030726	0.4468443018715427	0.4468620919405992	0.4749764284929893	0.5044206384438188	0.7158842913380326	0.7158877390147187	0.7188520947726055
25.0	0.2995071966292103	0.4463545010621139	0.4463725126513546	0.473810963283106	0.5025980879027705	0.7098282159122359	0.7098316894949127	0.7127324357135575
28.0	0.30310041699547197	0.4464373524890352	0.44645563700728325	0.47318645211459825	0.5012874438871331	0.7041249204786649	0.7041284281864479	0.7069628514703715
31.0	0.30742837587138283	0.44712699386103	0.4471456043908991	0.47314166742003644	0.5005318170307774	0.6988467822878371	0.6988503327710035	0.7016161302591443
34.0	0.31248956806095596	0.44844273388344963	0.44846172539879464	0.473700343281706	0.500359070189496	0.6940497991651534	0.6940534015600883	0.6967486599712845
37.0	0.31828237071235477	0.45040245298751264	0.4504218825930421	0.47488452906352996	0.50079512983635	0.6897866887900941	0.6897903527805742	0.6924135234633543
40.0	0.3247720531157101	0.45298943890751414	0.45300936611574044	0.476681386972888	0.5018307500857048	0.6860735141505778	0.6860772500381178	0.6886271208440876
43.0	0.3319731574440854	0.45623462456270586	0.45625511162757354	0.4791253988096881	0.5035036923963756	0.6829717889684731	0.6829756077551228	0.6854512723316466
46.0	0.33984628728451555	0.4601132544721533	0.46013436680509734	0.48219500610189403	0.5057953431853108	0.6804850808219146	0.6804889943099475	0.6828898192081605
49.0	0.34871405642426717	0.46496071995721794	0.46498252666092654	0.48622842153406215	0.5090465050318103	0.6789748459260577	0.6789788668405661	0.6813044566079433
52.0	0.3579643026145646	0.4701756523148736	0.47019822688451474	0.4906266978642954	0.51266044487401	0.6778635805878486	0.6778677227306862	0.6801178828710044
55.0	0.3678142385853782	0.4759839246646643	0.4760073459289813	0.4956177009055949	0.5168668419416307	0.6773989384628	0.6774032169100508	0.6795779141977994
60.0	0.3854702565437843	0.48690569333458616	0.4869307197199014	0.5051798950892803	0.5251242832781584	0.6780374681034329	0.6780420115465504	0.6800911616372927
65.0	0.4045571792440721	0.49926889256907253	0.49929580572266274	0.5161894270058915	0.5348351106253837	0.6804024211771332	0.6804072854414922	0.6823313253015721
70.0	0.4249105197011954	0.512890862151789	0.5129200151642159	0.5284614173764723	0.5458122539305182	0.68438635165959	0.6843916071544652	0.686190647448247
75.0	0.44636822288515965	0.5275380346760294	0.5275699127424291	0.5417498818135453	0.5577981519074704	0.6898348922819781	0.6898406344128762	0.6915134848939406
80.0	0.4688236021203973	0.5429002332729129	0.5429356191109835	0.5557072597083477	0.5704106992676443	0.6965538001722444	0.6965601765395373	0.6981019398324563
85.0	0.492399759784323	0.5583038252217178	0.5583445593081849	0.5695105978346027	0.5826894056140274	0.7042030954924956	0.7042104262274811	0.7056016855458849
90.0	0.5146351420741531	0.5689205071088013	0.5689691370359615	0.5780675361391072	0.5889499687928741	0.7029137086558865	0.7029225945970756	0.7040968863637636
95.0	0.53586131667591	0.5863262369865508	0.586375378066242	0.5948463922617391	0.6048604011137912	0.7106076892132891	0.7106170055146398	0.7117194741122064
100.0	0.5573305925207996	0.6047425594499355	0.6047920674601842	0.6127408580181195	0.6220696100736496	0.7211844631233668	0.7211941910244728	0.7222399119903736
105.0	0.5786036979142862	0.6233408736227743	0.6233906400261343	0.6308718297430586	0.6396051736997904	0.7329430918814722	0.7329532409834396	0.733949540291595
110.0	0.5995017049754097	0.6418241930602007	0.6418741268064967	0.648926956231948	0.657126310158546	0.7452270453530606	0.7452376380642161	0.7461895083755677
115.0	0.6199063304269001	0.6600174976286534	0.6600675190448424	0.6667237764668397	0.6744368547164682	0.7577388585555744	0.7577499271836364	0.7586612473797739
120.0	0.639727061513214	0.6777965617680143	0.6778465996209304	0.6841335824558488	0.6913999488466207	0.7702689319375284	0.7702805184723571	0.7711545102399773
125.0	0.6588952496505452	0.695069926314479	0.6951199161322354	0.7010618230872976	0.7079155320704521	0.7826689845145606	0.7826811416212844	0.7835205851348181
130.0	0.6773542763298402	0.7117641237778125	0.7118140068574437	0.71743269382986	0.7239037409021959	0.7948234063082578	0.7948361992457571	0.7956435508692943
135.0	0.695064668787211	0.7278264239670699	0.7278761463907912	0.7331915825094525	0.7393067866412253	0.8066471286859929	0.8066606382353747	0.8074381017618868
140.0	0.711997941374031	0.7432175085231265	0.7432670208471664	0.7482975958693384	0.754081189700955	0.818071799362112	0.8180861260850796	0.8188356994993462
145.0	0.7281367989536199	0.7579108727990034	0.757960129543489	0.76272284044018	0.7681968505245645	0.829048366613853	0.8290636370384049	0.8297871453488245
150.0	0.7434731017817153	0.7718904072609892	0.7719393665570307	0.7764500000954743	0.7816345768907671	0.8395406331632673	0.839557008937922	0.8402561286027244
155.0	0.758008164282203	0.7851504231926824	0.7851990464796589	0.7894722949096582	0.7943859364627581	0.8495245851453717	0.8495422770111327	0.8502185550844608
160.0	0.7717496686455746	0.797692336819992	0.7977405885729895	0.8017901511802183	0.8064498897924826	0.8589859269094055	0.8590052169391449	0.8596600868626345
165.0	0.784713564338328	0.809526489170022	0.8095743366388195	0.8134130055457509	0.8178345614553588	0.8679206825489618	0.8679419615533635	0.8685767569550784
170.0	0.7969182635048677	0.8206662308807401	0.8207136438158738	0.8243533782852535	0.8285512890143277	0.8763292348920579	0.8763530701339836	0.8769690378958692
175.0	0.8083892339376324	0.8311324362808481	0.8311793866000452	0.8346313786535551	0.8386191096373745	0.8842206119945065	0.8842478829559097	0.8848461973612589
180.0	0.8191537482983802	0.8409481664324541	0.84099462770362	0.8442693611237124	0.8480594011021313	0.8916070531402805	0.8916392686919371	0.8922210508603375
185.0	0.8292427658614568	0.8501406129727453	0.8501865592413096	0.8532938641771405	0.8568978062423261	0.8985062163540054	0.8985464771788917	0.8991128352262433
190.0	0.838688026811716	0.8587382808592771	0.8587836810902588	0.8617327928671145	0.8651613879573463	0.9049377029326902	0.9049962184792207	0.9055484294112911
195.0	0.8475198367111332	0.8667660249160216	0.8668108572423165	0.8696100687875206	0.8728737297876891	0.910913728048019	0.9110034414083314	0.9115427533439732
200.0	0.8557781685681202	0.874261746257185	0.8743060322147458	0.8769635485140421	0.8800716281338253	0.916466599834798	0.9165550631199318	0.9170812746279646
205.0	0.8634945237603203	0.8812552831348576	0.8812990094905558	0.8838225318625234	0.8867836963877065	0.9216212449136346	0.921708374891016	0.9222222332729265
210.0	0.8707028269389411	0.8877778459745778	0.8878210009332153	0.8902177387412531	0.8930401111310449	0.9264017929356064	0.9264874879372649	0.9269896980627774
215.0	0.8774353782234131	0.8938593211921719	0.8939018944930754	0.8961786200189535	0.8988698005753574	0.9308320396516446	0.9309161958872212	0.9314074208798802
220.0	0.8837233841449527	0.8995287097673584	0.89957069264083	0.9017337757983089	0.9043008769493698	0.9349352157329869	0.9350177285745974	0.9354985923518594
225.0	0.889598111264407	0.904815244456652	0.9048566295557058	0.9069120667559804	0.909361747957024	0.9387352107289403	0.9388159743351626	0.939287064304519
230.0	0.8950883611062967	0.9097458459057003	0.9097866272322203	0.9117400670210487	0.9140785676647998	0.9422542118371509	0.9423331174975763	0.942794987142472
235.0	0.9002206301058017	0.9143452727464643	0.9143854455769933	0.9162422119158642	0.9184753818592672	0.9455123818908799	0.9455893199461397	0.9460424912431242
240.0	0.9050221543414352	0.9186391454571072	0.9186787062700459	0.9204438198769862	0.9225771476015922	0.9485310563282244	0.9486059164847536	0.949050882144232
245.0	0.9095158472133656	0.9226488792709717	0.9226878256758647	0.9243660236796601	0.9264046622191147	0.9513279563280798	0.9514006286701724	0.9518378542090077
250.0	0.9137293361625456	0.9264007071744571	0.9264390378436549	0.9280347919340046	0.9299835827337669	0.9539254099276477	0.9539957847407348	0.954425710400584
255.0	0.9176765012353743	0.9299072203576244	0.9299449349940834	0.9314624682126548	0.9333259630898297	0.9563328718108826	0.9564008418294826	0.956823884356837
260.0	0.9213808864272908	0.9331907562449657	0.9332278554179483	0.9346711590376278	0.9364536420020668	0.9585692828422282	0.9586347441525527	0.9590512984571772
265.0	0.9248591368500894	0.936266839699519	0.9363033248853594	0.9376761688074329	0.9393816698367586	0.9606472978495907	0.9607101515389368	0.9611205922475723
270.0	0.9281291695409382	0.9391523495119912	0.9391882230448281	0.9404941747969506	0.9421264937961504	0.9625813380226305	0.962641491417307	0.9630461743393437
275.0	0.9312055697126933	0.941860885832705	0.9418961507228429	0.9431385818603594	0.9447012971759069	0.9643823531730772	0.9644397222461691	0.9648389857676294
280.0	0.9341029762627135	0.9444061831225914	0.9444408431320522	0.9456229455109	0.9471194343030561	0.9660614340363318	0.9661159443940204	0.9665101108155443
285.0	0.9368344402513904	0.9468004492121878	0.9468345087640623	0.9479593037044465	0.9493927535381745	0.9676287410827032	0.9676803306853797	0.9680697075189685
290.0	0.9394122389943074	0.949055166284294	0.9490886304180871	0.9501589787182133	0.9515324000710705	0.9690935233411654	0.9691421438901533	0.9695270251281056
295.0	0.9418468251049658	0.95118004791902	0.9512129222497564	0.952231533517323	0.9535477713564438	0.970463590876404	0.9705092098851498	0.9708898772529162
300.0	0.944148576939012	0.9531847798986834	0.9532170705799494	0.9541865119353747	0.9554482564408036	0.9717467891337205	0.9717893911755149	0.972166115378088
305.0	0.9463267662497796	0.9550779859683252	0.9551096996593748	0.9560324038604151	0.9572422003647281	0.9729500547272005	0.9729896430469455	0.9733626850159722
310.0	0.9483899022996771	0.9568675674673396	0.9568987113043249	0.9577769843377809	0.9589372425452909	0.9740795807149496	0.974116177828427	0.9744857899746163
315.0	0.9503457969112779	0.9585607657159843	0.9585913472872862	0.9594273754698112	0.9605403780126771	0.975141124484397	0.9751747729965138	0.9755412004693108
320.0	0.9522018135686348	0.9601644137856556	0.9601944411111977	0.9609902977377567	0.9620582081209699	0.9761400845927178	0.9761708469493329	0.9765343289035244
325.0	0.9539641731419443	0.9616842299564424	0.9617137114707739	0.9624713630460238	0.9634962330285236	0.9770808298280498	0.9771087877861089	0.9774695586532939
330.0	0.95563912151636	0.9631259926694051	0.9631549372082557	0.9638762492929795	0.9648600257480026	0.9779678933948465	0.9779931472553296	0.9783514380173471
335.0	0.9572322368663371	0.9644948321113411	0.9645232488934428	0.9652099915951955	0.9661545228893684	0.9788051594901389	0.9788278260604846	0.9791838655222067
340.0	0.9587486553460405	0.9657954720626545	0.9658233707055768	0.9664772236575516	0.9673842653317057	0.9795962491270266	0.9796164601836781	0.9799704762442629
345.0	0.9601931093307161	0.9670322545220872	0.9670596450134147	0.9676822027817533	0.968553423839108	0.9803444427467273	0.9803623422127115	0.980714563137606
350.0	0.9615699619675707	0.9682091757661352	0.9682360684678206	0.9688288445654816	0.9696658318451361	0.9810527342861285	0.9810684757708367	0.9814191314715914
355.0	0.9628833032647865	0.9693299811244007	0.9693563867708984	0.9699208181503617	0.9707250813786036	0.9817239238964665	0.9817376682171195	0.9820869915524818
360.0	0.9641368434044763	0.9703980570523989	0.9704239867501755	0.9709614378602899	0.9717344141207055	0.9823605060233526	0.9823724177064249	0.9827206458262856
365.0	0.9653338322297793	0.9714163504999304	0.9714418157282624	0.9719535823379795	0.9726966402443996	0.9829645933946173	0.9829748380148084	0.983322213778616
370.0	0.9664775580868346	0.9723878651090923	0.9724128777221913	0.9729001905250892	0.9736146341214487	0.9835383923571709	0.9835471340617868	0.9838939075755138
375.0	0.9675709471991054	0.9733152616599741	0.973339833890625	0.9738038619029054	0.9744909343124866	0.9840837924229678	0.9840911914874745	0.9844376218190749
380.0	0.9686167022885888	0.9742009960444802	0.9742251405095121	0.9746669942731325	0.9753278811180892	0.9846025531172493	0.9846087637731598	0.9849551209274167
385.0	0.969617319054069	0.9750473348348393	0.9750710645428816	0.9754917991446213	0.976127631755122	0.9850962695234406	0.9851014383108833	0.9854480055735134
390.0	0.9705750885753751	0.975856358194873	0.97587968655697	0.9762803044734837	0.9768921629043054	0.9855663866902954	0.9855706510668437	0.9859177278695778
395.0	0.9714921603239314	0.9766300232422453	0.9766529641051842	0.9770344182089312	0.9776233345667863	0.9860142616397045	0.9860177489948628	0.9863656545162157
400.0	0.9723704802336106	0.9773701031652422	0.9773926707725177	0.977755865868556	0.9783228255188091	0.986441095901323	0.9864439228898914	0.9867930007047758
